voltage
-1.351820589522712869e-02
1.498629400241326473e-02
-1.580665444901801706e-02
1.920379056648930868e-02
8.490659594564832491e-03
-1.018260354989098705e-02
-2.333120424098517748e-02
-6.826099604086499628e-02
-1.282158812383894569e-03
1.011811997112986410e-02
-6.368421231009715675e-03
2.956078591243483170e-02
-1.171436807070836382e-02
2.040023612987303028e-03
1.698128466670027065e-02
6.330130064934625170e-03
-1.031420958806230845e-02
-3.208959586519471996e-02
2.042647372491760219e-02
-2.775320495407980221e-03
5.148139452989742432e-02
4.783699964233426721e-02
-9.354738058437508117e-04
-3.588438624280384116e-03
2.716593407715620426e-02
1.607857631134922485e-02
2.549335675058709075e-02
5.117727750254034112e-03
-9.533489271299220094e-03
-2.867171771968327412e-02
-1.556160609761064913e-02
-1.928327587220708336e-02
1.468934718212153503e-02
-1.938396996237566725e-04
5.663846135263828942e-03
1.650936069788853499e-03
7.391856329056389809e-04
-2.668474924093303807e-02
1.657560700773331661e-02
1.944214900743961028e-02
-9.469775564490783698e-03
1.142734840370630660e-02
4.840099584822983581e-02
-8.318039340141643312e-03
-2.246932121518504036e-02
3.254815382491905301e-02
-4.719906741817795487e-02
3.409134938383665686e-02
4.561889852091897436e-03
-1.952088841284645160e-02
1.452738412087666150e-04
-9.051676800978032851e-04
-2.483836144448555230e-02
-1.916271544146893116e-02
-1.916928946650576365e-02
-1.734409851984826736e-02
1.929978143242876143e-02
1.669198153560970052e-02
-2.608040895650335853e-03
1.060564045529534954e-03
7.097738480731893666e-03
-1.758310059984659682e-02
-1.047874460351164681e-02
2.437197058405430466e-02
7.129170898960065887e-03
7.597105383945638134e-03
1.767306598388317150e-03
1.990058791269415372e-02
-8.830264425170500364e-03
2.216112485627094036e-02
2.390829528583884520e-02
1.779479142119308466e-02
-6.543017300931877438e-03
3.185288230639540807e-02
-6.513820124005315591e-03
2.747988416446385876e-02
3.661431197925035103e-02
2.278219900454251517e-02
-1.299413888464639446e-03
-1.643385464628167566e-03
-3.050150242471575193e-02
6.472175383933797231e-03
-8.154541832651209660e-03
3.152205503991789559e-02
-2.814891309476910339e-02
2.072937910431054895e-02
2.662127301569796808e-02
2.612973579598856441e-02
-6.806881205072844859e-03
3.858574437821811476e-02
1.427449038411019236e-02
2.035956798032994078e-02
-3.016279748923642381e-02
-2.686803893937256965e-02
-1.038628837669790771e-02
1.656802660440884027e-03
-3.136256307358370118e-03
-4.686754737769771584e-02
2.510495079251170297e-02
-2.157026645952183491e-02
2.548295153441312855e-02
-5.750621776414594974e-03
-2.054291610727102327e-02
1.351604133871486813e-02
-2.893542929953054829e-02
-1.940295485407970283e-02
-3.429192550119401772e-02
-5.650152019229050292e-04
-1.517856257160167532e-02
-2.329983153231289571e-04
-6.034949277975191345e-02
-6.498561212949100115e-03
-9.380159977079504871e-03
-2.062899491624143114e-02
-2.221452171294143949e-02
-2.577440554487299418e-02
-7.452355327711067401e-03
-3.427294381253353367e-02
-1.803209488515757422e-02
-9.544421410576603079e-03
2.568524944292412820e-02
-9.482354165879867264e-03
-1.307535397480001985e-02
4.136273710423031373e-03
-3.483690008525579251e-02
1.034704193377259697e-02
6.402891568301992669e-04
4.012612072594260587e-02
5.061604074503263731e-04
1.093551442022532537e-02
7.003311504001834970e-03
-2.119533892002059897e-02
-3.012003491367615943e-02
-2.154569093692864507e-02
2.786331133890423278e-02
9.540131261592428580e-03
-2.936864602775892102e-03
-1.744355783155917758e-02
-7.919415478010628437e-03
3.286176078405259309e-03
1.034364267423895124e-02
-9.500585354361700333e-03
-5.161654753208754810e-03
7.023239646652420544e-03
-1.423533293769633015e-02
3.196116078964932744e-02
1.739692171416645089e-02
-3.252663614946290976e-04
-5.852283677149446549e-03
-6.599528286667997838e-03
1.691688648096945080e-02
-3.418401332801347518e-04
-9.764304141363830056e-03
1.334863110839885209e-02
-9.525528954769992354e-03
-4.484542807517312435e-02
1.162456166571298674e-02
-2.870218595957038394e-03
-2.070351079668242972e-02
-3.331347361526207970e-03
-1.587410084429907026e-02
2.363243707681671538e-02
2.167776669222637453e-02
1.027706021793364788e-02
2.220606928380844391e-02
7.278264877818469390e-03
1.288214422438632364e-02
1.109020618521295437e-02
5.197189544492443816e-03
3.159249811000185149e-02
2.204054062677214543e-02
6.261480436910371594e-02
3.555724438417410399e-02
7.515624970683755512e-02
1.154021739329929158e-01
1.294657184089347268e-01
1.660473974802446628e-01
1.759856414559016757e-01
1.433495829302923741e-01
1.751804130724846087e-01
1.567242598537077758e-01
1.593202643481955727e-01
1.312691651332025256e-01
1.298465660368870456e-01
7.729881166536985149e-02
9.296584170715119222e-02
5.419331158052623221e-02
4.395053113544462181e-02
1.801123023234851156e-02
2.954653927014879930e-02
5.324394213706481332e-02
9.953574227911462027e-03
-8.133446131492786182e-03
-1.485380137914726201e-02
-4.357923650068078192e-02
3.848213279801607298e-03
1.603275438473157968e-02
-4.366536143587344820e-02
-3.352667522051443194e-02
-2.269662777272007589e-02
-8.962359395046306035e-03
-4.760583867578362972e-03
2.625123400213976929e-02
9.735946190534002301e-03
-3.623109966915175756e-02
2.906352489699579392e-02
8.608867952212677713e-03
-1.187851772788007035e-02
9.593276411752586427e-03
2.541352822642226755e-02
-4.895539966014276784e-04
2.013079779923936715e-03
-2.284944293542217134e-03
-9.980058608993919514e-03
-3.249749729772421353e-02
2.777647236704431852e-02
2.879093782828518952e-02
-1.645298713949662137e-02
1.307702364535805184e-03
-1.031379205992238174e-02
7.861017205947539929e-03
2.557676289882495485e-02
-8.733188812018696442e-03
-3.377958630878171451e-04
-7.614757409974700665e-03
1.403754435437974332e-02
5.889962652663765369e-03
-1.016517744186385200e-02
9.802226180489115228e-04
2.120886266726428483e-03
3.957668367582505009e-02
-1.760812065906856849e-02
-7.806303867200449151e-03
1.129889273919131888e-02
-1.708020883660374672e-03
-3.579141943137957582e-02
-1.749879134159625788e-02
-5.363730606790481636e-02
-5.236452750709076620e-02
-1.016809030996016633e-01
-7.385781085464154794e-02
-1.226353061544201845e-01
-1.189339793164674447e-01
-6.257652785348677416e-02
-5.400136910132088963e-02
1.298315986496034052e-02
4.841584008794060090e-02
7.392783145617290441e-02
1.399298146453764047e-01
2.343975741845483463e-01
3.660389047025504605e-01
5.087671789045723481e-01
6.098489876192276782e-01
7.861473557406128965e-01
8.990541059519205902e-01
9.546114762362143402e-01
9.982692609354616442e-01
9.630634045696265799e-01
8.753232046591822302e-01
7.255555713343792013e-01
5.989841446716521745e-01
4.709184624756420634e-01
3.343332398853983700e-01
2.164444492109262597e-01
1.315426221932060047e-01
9.377662509126348522e-02
1.837581587918510340e-02
-4.598752461299879940e-02
-1.032239518607527412e-01
-1.725287321738694368e-01
-2.131567942220799761e-01
-1.949907285349392616e-01
-1.995731524559802572e-01
-1.637857502548239752e-01
-1.343737410252471010e-01
-9.012071228566473358e-02
-3.234691471106721644e-02
-2.240419946483926394e-02
5.179963022149978134e-03
1.227316339488642230e-02
-1.178101913408419882e-02
5.048414908340384533e-02
3.334129374841501067e-03
4.150705264760536778e-02
-1.537795826899492589e-02
-4.944587241347845642e-03
-2.191633366277608713e-02
3.132251977920341712e-02
7.326257656063887326e-03
-3.394358305474391106e-03
-5.952350764357922791e-03
-2.984465404934373567e-02
-1.385971190111806757e-02
-4.654611323970406223e-02
1.459775661551161556e-02
-1.487188260781093299e-02
4.959909314472074442e-03
2.167231352793974261e-02
-7.471552130515600292e-03
3.248891073154618059e-02
9.282233119774540089e-03
-2.484246567007733844e-02
1.091180181609342423e-02
2.805362533970326422e-02
2.363543565192738685e-02
-3.280008931751007828e-02
-6.275683660656879680e-04
2.837678124430772272e-03
7.622862066098585153e-03
-5.419448100077930638e-03
-4.015102896465461320e-03
1.054749012331204598e-02
-7.996338343298249607e-03
3.717480440046224549e-02
2.608406280206095051e-02
-1.105313196685578196e-02
-2.262395882791671739e-02
-1.084395976202209323e-02
2.238818499078237476e-02
-2.286050176870619427e-02
-3.414490478547294039e-02
2.647191280608454655e-02
6.342654074308966619e-03
5.106296438770399973e-03
-3.443250961433851759e-02
1.075628887965799502e-02
-3.260114899990643883e-02
-9.282914121736037666e-03
7.222875451244939980e-03
2.888742432428237882e-03
1.917697955587405537e-02
9.115430586954296685e-03
-1.835477498767184093e-03
3.032878993080457414e-02
-3.423874246098124879e-03
7.400707916414518348e-03
2.247672222858294530e-02
1.075599030714241913e-02
8.394272919685227818e-02
8.948211732814438657e-03
5.499506835246084635e-02
4.716660160199860619e-02
5.485736667431393571e-02
6.581368515134422559e-02
1.061612109728348602e-01
1.179208582737138467e-01
1.289116234293802288e-01
1.646094262398438146e-01
1.581733822532158384e-01
1.593256043234380082e-01
1.932915168863952315e-01
2.011395613748333533e-01
2.507282027232309307e-01
2.404846799603941043e-01
2.443501744792803687e-01
2.794806045047405485e-01
2.694969001180814172e-01
2.653539794431560295e-01
2.731359128569804673e-01
2.787162794058362092e-01
2.708885340627976146e-01
2.688611911324096937e-01
2.823723626259644903e-01
2.222442197878778947e-01
2.446608496896437168e-01
2.249090429624548970e-01
2.390531182242645047e-01
1.718305314796148564e-01
1.931762495802157864e-01
1.952758243527362436e-01
1.574871076378471235e-01
1.264115847960350369e-01
1.068574317681460772e-01
8.241059675164963405e-02
1.025759994545865500e-01
3.684148415862514847e-02
3.870543404898219020e-02
7.888793210729069805e-02
5.920388966894189059e-02
6.949944110980608991e-02
-1.601460326692050878e-03
1.062926288750752971e-02
3.759624330036723250e-02
3.801023163684549844e-02
3.210984299650126994e-02
-7.212421014637119751e-03
-1.278813651047258984e-02
3.057397365162763114e-02
6.348453823931458212e-03
-2.294806258452761205e-02
1.226065473238669226e-02
5.920460284029883599e-03
4.074138074836887446e-02
4.269254896638398356e-02
-1.980603281028711637e-02
2.728091592844469893e-03
3.815876929338977291e-02
3.100150142470759016e-03
3.092158197537690431e-02
-3.036329245774929686e-02
2.524367984427893993e-02
2.209238340830387004e-02
5.647872910017071209e-03
-3.528438038677315924e-02
-9.237487139387593003e-04
-2.521007707909918641e-02
-2.354287587170055679e-02
-2.403902924250234802e-02
-2.732083155224269977e-02
-5.112233772221167101e-03
-6.708793984849626552e-03
-7.098821766735557807e-03
-3.091798966292591891e-02
-8.211424072096474777e-03
-9.541976906294906066e-03
5.140212305471701659e-03
-4.446858279240659823e-03
-4.628801527817237929e-03
-2.064648018481649895e-03
-7.774603653201668041e-04
-2.919705568183492486e-02
1.429660390178167165e-02
-2.276982631485362923e-02
-5.240654854100185514e-03
-1.444391316275982044e-02
3.444114063375863875e-03
-5.405843711103595732e-03
-1.341278976398100828e-02
-1.567041253685451732e-02
2.234862491331405035e-02
2.317770084714472142e-02
2.348592219645945917e-02
-1.238176052387277015e-02
8.171997511864639505e-03
-3.506393130032519484e-02
1.465735341184508725e-02
1.244912388704818261e-02
1.948942630303987164e-02
2.421977665934089280e-02
6.210842479843454306e-03
1.291949547176240477e-02
-1.490134473876768804e-02
4.160585256198696437e-03
2.400777084178827916e-02
-4.027636914503412036e-04
-2.212684741027022908e-02
-5.407728948885152410e-03
-3.808167770482145248e-02
-1.474724059577523644e-02
-1.139606734852736426e-02
-6.899135006247667130e-03
1.094720485066053885e-02
1.827929613105536827e-04
1.562774217259214199e-02
-2.380247948206401162e-02
-3.874291817390655007e-02
2.442122948743144506e-03
1.825918491575273181e-02
4.390826266008268641e-02
-3.774404866301039885e-03
-1.320927686331722570e-02
4.619120635889815973e-02
4.249341071834676631e-02
-7.961627574037861282e-03
7.682825983505420610e-05
-2.335522460554441404e-02
1.378860209085021674e-02
-3.240224601801609816e-02
-7.392022448900861624e-03
1.320128579186742937e-02
1.480556456122978422e-03
3.408200513981497759e-02
2.810703739743490581e-02
3.209266059874586741e-02
8.035990738981226488e-04
2.119390514561624722e-02
2.014399931037829522e-02
-4.297255667010074602e-04
1.878383393621859895e-02
-9.051074190491413540e-03
-7.165868319127258190e-03
3.796524982638312638e-03
2.972125248420051657e-02
-2.297627399570859388e-02
7.051565300239382274e-04
-1.796960760546547145e-02
1.877141130903542746e-02
1.539386196954036293e-02
2.655414742072184555e-03
1.036736215475608618e-03
1.783287346766532569e-02
-3.609709242692127253e-03
-3.077424102326748248e-02
2.797484899582916573e-02
6.310237939253298192e-03
-1.370920134941470969e-02
3.097551266970936107e-02
-1.921667546394835143e-03
2.537989611954941625e-03
-4.182139096082486407e-02
-1.257297518235783035e-02
1.636773413605899577e-02
-2.981861763558104153e-04
-9.473064047315434347e-03
-1.624381420476952650e-02
-1.508988190159121605e-02
2.138158477529538727e-03
-1.734018004267721741e-03
2.946445216871257378e-02
3.499050632017754875e-02
-1.089702989656170240e-02
-1.317850001319531691e-03
2.423166792973045075e-02
3.825091589143283718e-03
4.609760488695857639e-02
-2.967197197722191634e-02
3.165693422881336871e-02
2.681663223373803584e-02
-3.987550041575015775e-02
-6.534784197727864542e-03
2.199391642207058906e-02
2.731784628233692447e-02
2.770653105556118712e-02
-1.254645607785194808e-02
-9.520214023941136333e-03
2.396752296389435474e-02
-2.526073192491399069e-02
-2.876273019724861699e-02
-2.417283539010201335e-02
-4.511243872430572947e-03
1.497334200068306358e-02
4.182533352877970678e-02
-1.240050330645361271e-02
2.647156441826475914e-02
-5.059917521148764481e-03
-6.963767017121473557e-03
-1.078293580052690909e-02
3.235583273230509607e-03
2.103863618947957731e-02
-3.861638206920633282e-02
1.558305598627745311e-03
8.095507248584661586e-03
8.334233822825928839e-03
2.623752514748819119e-03
-8.013868893326536388e-03
-3.147579673415572959e-02
-4.808722451366947807e-03
2.219498615454837051e-02
-6.166082408799037490e-02
7.457670752518290314e-03
-2.235615326165108288e-02
-3.158952461936336432e-03
9.753773079777349961e-03
2.093520110636151038e-03
1.367556832007936138e-02
7.363356994681218189e-03
-1.669643249671288326e-02
8.536738199840947922e-03
3.380636690134904317e-03
1.027387387187395605e-02
-2.272165454716827682e-02
1.242947318996738375e-02
1.346378996378727773e-02
3.849447052706787484e-03
-5.785381244248893710e-03
6.227364598584520482e-03
1.882299566213059897e-02
2.396318666805413028e-02
1.654369611014818537e-03
-1.693206237329075367e-02
-1.656558087191991463e-02
6.172993871792993581e-03
1.695885638048601554e-02
-1.251446331200516821e-02
2.924071999072678368e-02
2.808025726525524113e-04
9.053399456849586108e-03
-5.256125642596496360e-03
1.303078616434875069e-02
-3.051122851457380592e-03
-8.513940603977518395e-03
-3.671395978097896640e-02
-3.112959047221946010e-02
7.158163659028257686e-03
2.846946463068836253e-03
-4.948777995649808817e-03
3.448012914206971535e-02
1.424942020311921638e-02
1.660479838306006071e-03
-4.300113364101030081e-03
2.017163681538647682e-02
-1.138043251398368743e-03
-1.470361835537621793e-02
2.098691932870331775e-02
3.230513318274435414e-03
-1.011570346430287412e-02
2.825692170368768533e-02
-2.060456771754318184e-02
4.259270298212630007e-02
1.561046265937879665e-02
-3.819234007480264148e-02
5.699346192357188437e-03
3.000433509514238012e-02
-5.791739268973710233e-04
-5.635072983037694300e-03
-2.774717316067681905e-02
2.101295051084524704e-02
4.481350896829638247e-02
2.757043147416503998e-02
7.125210411565188057e-03
-1.715059578651024000e-02
-4.522147690743397392e-04
-1.248606078400092689e-02
2.084890117386185501e-02
7.726731185887788372e-03
-1.703250480321148036e-02
-3.604070829475891635e-02
1.235079847803353427e-02
1.526439884658799262e-02
-2.351157528388331253e-02
2.593675167358020645e-02
7.710922424562694291e-03
2.776867816720570651e-03
4.630445932064318482e-02
9.223362059344666908e-03
1.930002121838755857e-02
-2.446106869100724956e-03
1.602713101239933505e-02
-1.630604537404803031e-02
1.002234933784137624e-02
3.034400207682791742e-02
2.221780148841615704e-02
-6.213992901137613961e-03
-3.346410636180163420e-03
2.485734860672211832e-02
3.433309273647745102e-02
9.651660045340005462e-03
1.289265388255642943e-02
-1.701194524502906702e-02
-2.382514708974129911e-03
1.706065707280942159e-02
3.091684516639603766e-02
1.383138502940313257e-02
-1.947759994157739413e-02
-1.850798763972575159e-03
1.727960456469694248e-02
-8.321591178916764794e-03
-2.380323206679476819e-02
1.944043817733061286e-02
1.212128303947421736e-02
2.916316182857954520e-02
1.041560792678106195e-02
-1.131194303638023181e-02
1.489741098198343883e-02
-3.001599216159914381e-03
-3.689397536908427949e-03
2.026657425521604869e-02
-2.875259263824831574e-03
3.386022640419866694e-03
2.400219022480011219e-02
-5.565117395796659837e-03
2.153980110212219690e-02
-2.626606769435520586e-02
1.346122500779009697e-02
-3.267746865072417711e-02
5.495048974726961244e-04
-1.820012621491852098e-02
3.243999381334933957e-02
1.922027247097055080e-02
4.998481829718170837e-03
-4.975226414549754894e-03
-1.474212344454940010e-02
-7.620078527252057733e-03
-7.418911351923441165e-03
2.131775747215787498e-02
-1.757930625053384655e-02
3.524575414934000978e-02
-3.185017934168806603e-02
3.414112068500299579e-02
1.087731701189574574e-02
-1.221899155838239437e-02
-1.100684829409797477e-02
8.889384751976162069e-02
5.616924780469295664e-02
4.774770671547548528e-02
6.711268936831484011e-02
1.089271922961426164e-01
1.175760066246997748e-01
1.243099881088015474e-01
1.366363152899867095e-01
2.105973952622899326e-01
1.624882418209272206e-01
1.509417409799655718e-01
1.672400206212940055e-01
1.394059016596534972e-01
1.002411567510881618e-01
7.950347618894347546e-02
6.940756285243110391e-02
1.045220106688847794e-01
8.846851647280584707e-02
2.893964858112427208e-03
6.303217442021842587e-03
2.930460403260037178e-02
-8.585620791203667224e-04
2.849949066698876168e-02
2.019730661195323976e-02
-1.112795557862425629e-02
8.496402903635657741e-03
1.183875531205015770e-02
-1.166584365054540960e-02
4.096043553684195447e-03
-7.488638015937582786e-04
-3.404750157952911999e-02
9.642460388450310380e-03
-3.484326702099965235e-03
-5.537506463130146411e-03
4.758204703035492922e-02
-2.108714747665913804e-03
-1.692232129587327785e-02
-9.286428280862147125e-03
-1.526968121719519088e-02
6.930380344706616423e-03
1.321007331367781389e-02
1.025841460125842715e-02
1.579093372477733195e-02
-4.413675253102808393e-02
1.537964158539659697e-02
1.336990806354390604e-02
-7.143138316246589944e-03
4.747747953824425077e-02
-1.234596509990731894e-02
2.158992520104451029e-02
-2.003403588911440575e-02
-1.152362495525597469e-02
5.029587358083408011e-02
-1.005490085597281896e-02
-2.649091237119815742e-02
-5.120514912343120811e-03
5.862878230320017585e-03
6.687781458664118035e-04
1.147267648835411822e-03
2.578395715103480243e-02
5.578275853243622184e-03
1.372849520659156879e-02
-2.372467817949545400e-03
2.199135811654094955e-02
7.619311671845018126e-03
7.723591684191094542e-03
-5.437182164877690099e-02
-5.724079385144185961e-02
-8.756299087949287463e-02
-1.195508377129843730e-01
-9.679696980947266605e-02
-1.077274677084697069e-01
-1.002832069435610068e-01
-1.694169499733204354e-02
-3.066793728278770226e-02
3.250227000763224183e-02
5.604968932319957103e-02
8.864280735147539447e-02
1.658488237004167587e-01
2.616149666994212475e-01
3.965263922966347221e-01
5.174948847653367823e-01
6.824339219007596880e-01
8.236487979372904000e-01
9.202671593229772018e-01
1.000000000000000000e+00
1.000000000000000000e+00
9.369644092959508175e-01
7.998450187410682810e-01
6.930603503765603302e-01
5.279600613889964267e-01
4.527356974023022951e-01
3.293282651391433724e-01
2.149082961466314279e-01
1.364634761436702148e-01
7.665768612354215139e-02
2.948572856470652037e-02
-2.498146256369615167e-02
-9.291373523421861402e-02
-1.457555790004935736e-01
-1.949970235347343039e-01
-1.788304151044435852e-01
-1.923173188580864224e-01
-1.614811466582481148e-01
-5.925966591516423215e-02
-7.553952488712006863e-02
-1.667068116904296335e-02
-2.302667818716047296e-02
-5.165921734719080248e-03
-4.399430651344600832e-03
-3.483085552651932204e-02
-1.148966542599662126e-02
2.361965279703335304e-03
8.140397430328245214e-04
-1.596973417611740470e-02
-1.352868850407823280e-02
-1.988430894231853902e-02
2.335935545583994397e-02
2.504256845304119600e-02
-3.058263084635090556e-02
-8.960396573343677035e-03
2.402863504257595623e-02
-3.377300409817623333e-02
2.255404185715684934e-02
-1.003866611230375995e-02
-1.570292336320332910e-02
9.166577751764151336e-03
1.606119100261568095e-02
-8.277505688352202601e-03
-5.541442224886630741e-03
-2.617069184468364534e-02
7.904652343801192235e-03
-4.314511177014460422e-03
-5.263714543867221984e-02
9.169890380096606952e-03
-2.263176795619313911e-02
-2.666279100955644063e-02
7.369744533898002319e-03
3.183536222249997577e-02
1.408983693952854319e-03
3.186369612351500069e-02
-5.764603986508131349e-03
6.547156262579321290e-03
-6.211079805070806453e-03
-3.016139860942528353e-03
1.163701983186454791e-02
-2.561058473516110434e-02
5.066333865631771245e-03
1.016790557221397551e-02
-3.366950292229929772e-04
-1.505518100334913081e-02
-1.548529025491381626e-02
-1.024440772991652010e-02
-5.124453874461967415e-03
-8.237943428808805479e-03
-9.761867860261150970e-03
1.380875273318763613e-02
-1.559925679822656182e-02
2.229639110198003080e-02
3.640967202890406026e-03
1.080206229015185510e-03
1.657478544868483741e-02
2.432350807126876235e-02
3.036944909182257707e-02
2.213088503610933372e-02
2.560534397047348892e-02
1.525148745285310851e-02
-1.488720724429175302e-02
2.842038122723380272e-02
4.683634639334947197e-02
4.891025491680851128e-02
8.929327731584139893e-02
7.753380415934131575e-02
7.039673169025151278e-02
1.444466968781384641e-01
1.065315222977124554e-01
1.207615309727589348e-01
1.581242067195570145e-01
1.804111941778232253e-01
1.915571412781549299e-01
1.451748671207068742e-01
2.464869182184388496e-01
2.283000004177307973e-01
2.083199232464774953e-01
2.081126063285659855e-01
2.862720273978412444e-01
2.735749819856388432e-01
3.085555952516469969e-01
3.063245000977960486e-01
2.633612259090331031e-01
2.603050428323558929e-01
2.476733903115991287e-01
2.646727504746965720e-01
2.438023298458160959e-01
2.395608620318158966e-01
2.187664321577948434e-01
2.122069642459242234e-01
1.713218905312050566e-01
1.719770632957943191e-01
1.727219870567880955e-01
1.237029996441791485e-01
1.032793755235327793e-01
1.429875672958106914e-01
9.450590418070974053e-02
8.177300988584787489e-02
4.573261107633970479e-02
7.634980010934934447e-02
4.140719736738751600e-02
5.125286544877868250e-02
6.984722939207595183e-02
5.029327670604809286e-02
2.558154523395693783e-02
-1.177576364557761726e-02
5.188038211076318601e-03
-2.942321704362955981e-02
2.351723864480820270e-02
-4.173385897271746428e-03
7.805386349830639378e-03
-1.079033809419994647e-03
5.361436835861837016e-03
-2.282430244399825947e-02
7.222751294328082000e-04
7.198204406210490305e-03
3.467288251822805978e-02
-3.559942474024629239e-02
1.196848056336341330e-02
-9.364265996353891841e-03
6.656065313400399454e-03
-5.386997567282972798e-05
-6.087837107820486503e-03
3.983410649742880755e-02
-2.710710908388181198e-02
-1.239135062445864167e-02
1.781434551450391396e-02
-3.221663573599431018e-04
-1.100057541839018216e-02
3.569733830671168416e-03
-2.466268864034057082e-02
-1.209537337897839161e-02
5.572966293709176282e-03
-4.396820270140795739e-02
4.600824657800296758e-02
-5.153788761265017115e-02
2.021515556912987024e-02
2.353654333012650257e-02
1.638134740610805787e-02
6.450434622277443665e-03
-1.114547439672106902e-03
-4.412515440137048869e-03
8.829215234045846572e-03
-8.986475845823684375e-03
5.462487480097571318e-03
2.079600697738829759e-02
-3.288738095134020184e-02
-8.102263290222712355e-03
-1.081757381530019241e-02
-2.000942120997079021e-02
-1.156823319644220130e-03
6.504257618359798876e-02
2.167046512118527696e-02
2.260612886377722473e-03
1.738680742980578797e-03
8.725407421005568209e-03
-8.874928562438148816e-03
-2.255951572764376689e-02
1.298104452302170295e-02
-1.339309726343836451e-02
9.465656758267485286e-04
-3.687641276322231598e-02
1.967067016002776308e-02
4.418645875413556440e-03
-6.525964491520508740e-03
1.013792166504741583e-02
-2.362407716938099908e-02
-1.583609797796787372e-02
-1.133796969393223962e-02
8.820076558652410401e-03
9.408834010253953536e-03
-1.900519310235136358e-02
-3.111772666562272454e-03
-3.146682946995543739e-02
-3.615278157040289608e-03
1.517037600554139824e-02
-1.730310284243364791e-02
3.401512956991583486e-02
-1.558281528261412814e-02
-1.238136914755544500e-02
-3.308227967323253832e-02
1.183295181818959027e-02
4.887501807975717233e-02
-2.624821926858072227e-04
3.318071236678233477e-02
-9.847314795992033812e-03
-1.505718507970198877e-02
-6.234945681679081655e-04
2.159300870050416543e-02
3.981564384018591168e-03
-1.462372336635437559e-02
2.137694015632775335e-02
1.464218009840811095e-02
-3.661562367359278564e-03
-7.511308309852994351e-03
-1.482443689932586017e-02
-9.261890194737369729e-04
-2.084653327564942038e-02
1.068056533784202296e-02
-1.422824393178204541e-02
-8.034118618176194077e-03
8.595648259065060207e-03
-3.377078178728719262e-03
-3.095052530619261943e-02
-1.344375389413143829e-02
-1.393330975158204449e-02
4.477409132604498465e-03
-1.327454477694513246e-02
1.408705710313214177e-02
-1.004645900578059886e-02
1.412159512761285976e-03
5.581586024081376142e-03
-1.974820514726496890e-02
9.418009406361100774e-03
-2.847999639869098348e-02
-1.490229433611057856e-02
2.594729659478313410e-02
-1.619653208264401623e-02
2.005347289906738144e-03
-1.612398233876892115e-02
-1.725405703000128937e-02
-5.212306367193770065e-03
-1.384172736859545522e-03
4.693308158007124947e-03
-1.307441070810972522e-02
-1.731415884507554476e-03
1.148667360996957938e-02
-1.416245911681224007e-04
2.587928117969733391e-02
1.906193572412460263e-02
-2.199200669618264162e-03
-1.392614378933279724e-02
-9.823714016374340136e-03
2.552232033078180237e-02
2.307255350582304576e-02
5.829507041912500645e-03
1.637050974424745370e-02
1.993956294877096552e-02
2.545822940902015344e-02
2.465963061495753637e-03
3.045652626600063584e-02
-2.311876149971229047e-02
1.280228985270331042e-02
-7.089497769216787648e-03
-1.916403114420891715e-02
1.922486781427101138e-02
1.171448861952420137e-02
1.753952661717354811e-02
-6.065910891124941945e-03
-2.581875023511434608e-02
2.117081150968431330e-02
-5.582898756228782920e-03
4.659427175661905868e-02
-4.346032567206983832e-02
2.300639113044550960e-02
2.474236029407512333e-02
-6.366889203624862340e-03
4.318861920186598154e-03
3.661761920728313219e-02
7.419545246439883737e-03
1.869476175766792564e-02
-5.548405207599300774e-03
8.176926653778636422e-03
3.008109179164370969e-02
-3.076857409472560922e-02
1.391514334933503967e-02
-7.907932097356212831e-03
1.035156665784643486e-02
3.032267520346447476e-02
1.261509967615657632e-02
1.558360534505165993e-03
-6.161588355508787300e-03
1.584827638164178210e-02
4.614683337127174604e-05
-5.192385705150648345e-02
9.171083645364055612e-03
-1.092864186816405563e-02
-2.292036060528160682e-02
-1.225895778582315743e-02
-1.592530416713998365e-02
-3.826066297820104444e-03
-1.962270283769976600e-02
-1.635786049456282656e-02
-3.326651807495408647e-02
2.284456733545379287e-02
-1.095132556024741403e-02
5.149565270521723470e-02
1.778851606174500916e-02
-6.147009853174873785e-03
-6.363238903378387948e-03
-1.237239858096320956e-02
-3.483374369884064542e-02
-1.977028465156765655e-02
-1.411957168233650417e-02
1.237667468859241990e-02
-3.340454949722494044e-02
8.954531742083890813e-03
-8.841508778283423478e-04
1.780628381657086215e-02
4.085417672356127239e-02
2.023287917922918580e-02
8.405062106776120534e-03
-3.413621460217800690e-02
-1.174653337377282690e-02
-2.409633016980733400e-02
3.577258533018502079e-02
-9.347087872519947369e-03
2.132224217219582177e-02
1.137107767588073359e-02
-3.197137571213901075e-02
-1.135759171989369175e-02
-9.488768834190378088e-03
-2.335370337737477028e-02
1.206990628142142266e-02
1.019605445800343072e-03
-2.819473775705343827e-02
-1.328991478710212816e-02
-2.797283240262747606e-02
1.978166262929549613e-03
1.077669766524661822e-02
-2.440360375506690337e-03
3.778764870597381420e-02
4.303438708948458674e-03
4.114308886949632343e-02
-1.168983429860996105e-02
-1.628012084983892355e-02
3.119890610827593877e-02
-1.904887384179516918e-02
1.535164017332927774e-02
-2.958380233535978787e-03
-1.506496700484055880e-02
2.643108892388668085e-02
4.846871618993835867e-02
-4.167975507862370192e-03
1.002196193382815653e-02
-6.719018189110271926e-03
-2.409964831293210166e-02
-9.035495993214496049e-03
2.384053142221424088e-02
-1.885700094253417447e-02
1.717614061326409522e-02
1.749907058868508183e-02
8.330970258918964436e-03
-4.605573530584535467e-03
-1.161980496920209278e-02
-1.705345591017442750e-02
-1.680418643023596018e-02
3.052036738437609656e-02
-4.322222773633192100e-02
5.574555626343840470e-02
-7.602524694615664727e-03
-1.311272709086921603e-02
-6.014158840627648571e-03
-1.958621001942209561e-02
-1.561816556103611149e-02
2.851406136700907878e-03
1.631509327683921748e-02
-3.496934694148769868e-02
3.161765243271691395e-02
2.560260823151121537e-02
-1.255632895198047216e-02
2.073236164299864515e-02
8.465135319492495328e-03
-1.805744102061304646e-02
-6.592823322580734086e-03
9.700000741750765265e-03
-1.741562386614834432e-03
-1.791992861084136567e-03
3.969712153871866878e-02
2.490171307577702248e-02
1.357695062181246692e-02
-8.739305127624523092e-03
-3.896329323498726876e-02
6.128210150235552552e-03
-6.813361190251950028e-03
1.481007050553119486e-02
2.747282502008968272e-02
3.600679328512444016e-02
-6.756175034717407449e-03
-5.989000570017584315e-04
-1.248434816952786151e-02
1.037506567064535408e-03
-6.222884338023537687e-04
4.424797854061988077e-03
-5.160753821098025551e-02
1.651165925755640777e-03
-3.657855650508113482e-02
-1.518956180435182719e-02
2.315757200876084748e-02
3.496296633856141312e-02
-3.311998655780884482e-02
-1.777938810704757927e-02
-3.252241590316656134e-03
-1.499845820985371003e-02
-2.128781983429950050e-02
1.444472243117136435e-02
-1.513785577295567730e-02
3.468825488018851926e-03
3.483396763829715859e-02
1.295480382581701458e-02
4.522419412078731125e-03
-2.804931048475990674e-04
3.016089837324279280e-02
4.293290967429200244e-02
4.104428656789959468e-02
6.933294200502840288e-02
1.519113200236636013e-02
5.871970509446219205e-02
8.765249492733738490e-02
1.234148309187587111e-01
1.463528777028687278e-01
1.427778383308855870e-01
1.702168760466062913e-01
1.437351578442202793e-01
1.666762623388924891e-01
1.555889900757119748e-01
1.399004235016799158e-01
1.646603599297676856e-01
1.274952959920467033e-01
9.517186366840479916e-02
9.710959324753687394e-02
2.611780622508331345e-02
4.344363305962076205e-02
3.659140879824821641e-02
5.157951880299445346e-02
4.050447012919124873e-02
2.908877467930404137e-02
-4.226635789776494317e-02
1.506136319485585837e-02
1.855376321352483066e-02
-4.720854722227779340e-03
-2.757159231237627309e-02
-1.968080221523920564e-02
3.219357096825146980e-02
-2.119051144082487875e-02
-4.141061118760397397e-02
-3.147908347874494445e-02
1.285029942700464771e-02
-2.258240272758069503e-03
1.002348398691292608e-02
1.046631926584240709e-02
-4.916800839845533429e-04
-1.156164611585694217e-02
-2.087923498989139280e-03
-3.100172543957829298e-03
-2.856782029589423691e-02
-3.141191762362561396e-02
-3.089737212695581672e-02
5.055949150809577880e-02
-2.099532899194559918e-02
7.132851537305086656e-03
-2.724632114629611194e-03
2.751231389667742333e-02
2.272244873596559675e-02
7.916423523233804063e-03
-2.426686095896170639e-02
9.200751957299685771e-03
-2.748829070516762077e-02
-1.398628727752167060e-02
6.754601978793603294e-03
1.653408659470162467e-02
-2.703757180101711097e-03
-1.711512187982694444e-02
7.257124635508811587e-04
1.006655428079383623e-02
-1.753937339055600467e-02
-1.384049280387223552e-02
2.802677941653995350e-02
-3.069398264673641949e-02
2.202722991191653074e-02
-3.448034868288425703e-02
-3.325732012083364858e-02
-7.467017411602761001e-02
-5.049777094497805152e-02
-1.056485431601007080e-01
-1.114043232239227271e-01
-8.455679319718661935e-02
-1.163482867589789860e-01
-3.740561275850619316e-02
7.040001169350553270e-03
9.267409208815620067e-03
8.794901074317509893e-02
1.149634619073738595e-01
1.860843868706481552e-01
2.894394961199250327e-01
4.307180709342693925e-01
5.576549545104865224e-01
7.031044494308095194e-01
8.762975746703457469e-01
9.605490164020732413e-01
9.980646531266487154e-01
9.692797467703290204e-01
9.052947001088929024e-01
7.943168672395475305e-01
6.640966926922889924e-01
5.361472161882419041e-01
4.011523267613746335e-01
2.846662532850771088e-01
1.970375026991039724e-01
7.737046772017396046e-02
3.626162254138044772e-02
4.394672689477152963e-03
-1.061154756226159457e-01
-8.969923790137457331e-02
-1.540851231899108553e-01
-2.284887758030192673e-01
-2.013876046481043181e-01
-1.867390150357575718e-01
-1.801340817189486798e-01
-7.214527458344836830e-02
-3.979519223797469557e-02
-2.390995226012154751e-02
-1.068471451652521116e-02
-6.368995420837107041e-03
1.593833030219968250e-02
-2.571601132415004404e-02
1.278347548427097649e-02
-1.653907031760704343e-03
-2.302905764595430255e-02
-2.271181819816219666e-02
-2.949764522494529098e-02
4.669470438607795267e-03
6.298641938678808949e-03
5.342209547733594048e-04
2.825622587334671032e-02
1.188426635101196525e-02
6.797377671376171084e-03
5.945911861375101359e-03
3.897400480390036948e-02
1.895297116944704569e-02
1.286868374769801343e-02
-2.639893468866514117e-02
-1.776751458041989432e-02
1.458507783527651473e-02
-1.830438651628070110e-02
1.611901321733651225e-03
2.099883605863214070e-02
1.263917982193131333e-02
-1.788859170168715512e-02
3.072403363220918213e-02
5.303498761423346489e-03
-2.748947397208609603e-02
-7.141160780371548326e-03
3.765798250633573679e-02
3.591164313144779626e-03
8.096097497693688361e-03
1.408666778300150801e-02
-2.440425677089957252e-02
1.772787390974376459e-02
3.820812038439520050e-03
-1.075356070103183426e-03
-1.637804750840501228e-02
-3.654838064015056981e-02
8.909246773137501942e-04
2.179651133987704076e-02
6.646302056188913530e-03
1.057020993947063205e-02
-2.245661464881298572e-02
7.260035141947589719e-03
-1.314808690567829084e-02
2.127692017440113714e-02
2.673313742767449708e-02
1.008815618923450570e-02
2.744590372996809097e-03
3.133171237718029856e-02
1.479844259878397225e-02
-2.595845965929339735e-02
-4.412513707791760470e-02
3.030689797143704123e-02
4.198569712793120967e-02
5.494265033168595214e-02
3.464982515375393535e-02
3.847855743313854937e-02
4.671343380330704453e-02
7.810384993308180923e-02
9.354474121576956958e-02
6.522004667777328568e-02
9.966466978996890713e-02
9.307196200247025430e-02
1.094043073522491805e-01
1.118688434707304086e-01
1.448964954553309814e-01
1.538024842569901129e-01
1.587625785730313599e-01
2.235776189855426255e-01
2.219687960611358979e-01
2.450389662988226858e-01
2.171418502164655928e-01
2.973940551346618832e-01
2.311864805242929699e-01
2.241435728241528424e-01
2.484783210748605642e-01
2.797030760030760899e-01
2.890553805506934637e-01
2.583186269772229648e-01
2.572624571467411192e-01
2.190515646433347785e-01
2.639371005390787617e-01
2.939392225227777100e-01
2.484020529096766516e-01
1.956172513239242128e-01
1.971310655556054448e-01
2.337847962414727199e-01
1.731251828695772044e-01
1.328231725593703449e-01
1.390575171904296914e-01
9.645754452926152966e-02
9.373649574362701020e-02
8.213041404051821259e-02
7.990260043080048280e-02
4.446126312069524633e-02
8.216720020413269265e-02
5.534125256294711304e-02
3.403962880377619377e-02
1.285691632340979842e-02
1.367220848880763319e-02
1.061936295568130864e-02
3.024288184409440472e-02
1.781885597063940022e-02
2.168069387070122034e-02
1.248006208800223234e-02
4.483916616772781402e-03
-4.164881701883391303e-03
-2.842181531550333744e-03
-1.011600112335209536e-02
3.473435187056484429e-03
2.976707574201230624e-02
-7.543186673907797957e-03
7.251414763633297518e-03
-1.293613152482057937e-02
-4.426098616903714582e-03
-6.289056751331095763e-03
-1.080441491612414359e-02
1.114059296126411990e-02
1.468229488233951247e-03
7.377828595098371960e-03
1.767284899124481334e-02
1.067860383158070539e-02
2.055677620983125189e-02
-1.946541319043075188e-02
1.553474413681716140e-02
-3.633254397601578395e-02
4.430339093344021033e-03
-9.215466441737400413e-03
3.491561725996127075e-02
-2.437495191196681690e-02
-1.640019881678965799e-02
5.038444120600443256e-03
2.730172251172897913e-02
-1.039884381190272870e-02
-1.417316012249414912e-02
2.841880962117543027e-02
-1.178421276126407111e-04
5.472752662198639671e-03
-8.821355383837211489e-03
-1.161276331259848693e-02
9.133772217650090730e-03
-2.273064083825347345e-02
2.727223881805356572e-04
-9.996742197241028499e-03
-2.355622191796035922e-02
8.340523626649583647e-03
-6.562833939629209197e-03
7.978817332727358713e-03
1.796942986667213540e-02
1.318828759898302977e-02
2.408451623389641291e-02
2.098463003117652034e-02
6.760066584515086845e-03
1.350587134817242060e-02
-2.134117242088658800e-02
3.395766225384058701e-02
1.191772011742039429e-02
-1.267803031330062315e-02
3.030418772461253817e-03
-5.353012186162965994e-03
-8.537421847071695888e-04
-1.490276615525870131e-02
5.173937692640758965e-03
8.416864846767931410e-03
-1.715138991877651793e-03
5.125460455163913243e-02
-1.611357812168316000e-02
1.470307250415323411e-02
-5.266231790010407476e-03
1.551327068356243670e-02
-2.248779451224910270e-02
-1.234339927387107655e-02
-4.370136688750459603e-02
-1.199960021575456181e-03
-4.955515069054453742e-03
9.868029264298550443e-03
-4.703134051797819813e-03
-3.833831221400345324e-03
-3.902799341136159884e-03
2.724592419090835892e-03
4.306309288779825578e-02
3.196520700430377504e-02
1.017405813712238434e-02
-9.156530941684930952e-03
6.399687022266843661e-02
1.339690020915532652e-02
1.447722419895612622e-02
-3.170734110910960329e-02
-4.755189186229066833e-03
-4.064629116781006898e-03
-6.024916523179857895e-03
1.738838841661868514e-02
-1.609048181745523914e-02
1.755414048618711116e-03
1.406375662239961292e-02
2.347283914484992254e-02
-1.699705138084262046e-02
1.942128344613455737e-02
3.539198690116118068e-02
-2.209560511460053125e-02
-7.395799761371387587e-03
1.178132373837838427e-02
2.056938326014039892e-02
1.785173253227826176e-02
5.052234564975150929e-04
-2.545168319228416007e-02
-3.063740038047971931e-02
-8.790770245603828775e-03
2.921397475352278256e-02
1.797391372552126915e-02
-6.959085096157653291e-03
-1.024341338363443654e-02
3.242421398331321591e-02
9.467133314111201431e-03
-2.484238105186467246e-02
1.502446565944015123e-03
-5.556046439022379463e-03
-6.051188998503955613e-03
-1.479020337105201553e-03
-3.716825622033009813e-02
-2.990819623328031668e-02
4.172420237844380597e-02
-9.308424628582799565e-03
-3.005807281040787527e-03
-3.831736149102483047e-03
-2.736247786464850867e-02
-6.010907473179254688e-03
-4.742346470520241407e-03
-2.882211625488845935e-02
-3.801673712589439397e-02
1.796873831424164458e-02
-1.060116835491768141e-02
-1.522159899554678328e-02
-1.513592936787995849e-02
-2.352973450927188515e-02
1.745388510528107437e-02
-5.294024749785367946e-03
1.034827442163670924e-02
-7.009526705893094276e-03
-3.547766239659573377e-03
-8.734736290620125077e-03
-3.970294297442632236e-03
-1.325614294432504552e-03
6.475015407352664384e-03
-2.365302682102840472e-03
2.740754981321711498e-02
1.769917122358357839e-02
1.473416487350322213e-02
5.958539778295623805e-03
2.296667846574670588e-02
-1.943116249939900314e-02
-3.563060384335314107e-02
1.232254915206849183e-02
-5.373996362321653390e-03
-3.327197539433272150e-02
-3.581575553286144714e-02
1.284640273353468312e-04
2.852003381926103680e-03
-2.839832468378865240e-03
-1.100279738476031728e-02
1.950536364555188404e-02
1.474652853843463896e-02
-2.474446393902804409e-02
-1.582564290764746848e-02
1.397290064173318559e-02
-4.834381159927098742e-02
1.006036248456900276e-02
-1.802845619333002039e-02
1.776765696163408806e-02
-4.981426762703652922e-02
5.479577851578710385e-02
-1.023792344239247878e-04
-8.652672718050985132e-03
-4.091722187986876480e-02
-1.091389373332637448e-02
-1.209398917559290944e-02
-2.310848256332989018e-03
1.451125705412706704e-02
-1.282228642458218583e-02
-1.292677561343047628e-02
-1.435916724636205483e-02
2.857513217460099300e-03
5.761945475051793997e-03
2.098800109721582138e-02
-1.962901418946703946e-02
1.018563435078574837e-02
-2.698615436229544889e-02
-1.094840372959976320e-02
1.008766661033668258e-02
-6.482073298563803543e-03
-8.462423041201849391e-03
-3.568012542431500938e-03
1.887300944758501034e-02
5.796967597544695023e-04
-1.908299519055093804e-02
1.280646653055516997e-02
6.534110262047781136e-03
-1.996109282729061074e-02
-7.706700645643022474e-05
4.028153578974097318e-04
-7.381371193441830549e-03
1.961548153401949240e-02
1.163973163743969169e-02
1.309421707609636880e-02
-2.486084837582114293e-02
2.239075614307439385e-02
4.143429985720544807e-03
9.884107512557227179e-03
2.673043487347548028e-02
-3.475995160088766849e-03
-1.365263763562232086e-02
-1.579085277627720330e-02
-1.664098830051495559e-02
-4.665938314756856546e-03
6.675330587656252805e-03
8.339081601530261073e-04
1.827721842035701181e-03
-1.341618561374599561e-02
3.427508197886568186e-02
9.694022489824295763e-04
-1.504324669944633389e-02
-9.949756929723860971e-03
3.019712523961985001e-02
-5.419476967157950409e-03
4.306881491738235451e-02
3.804454053856276292e-03
-2.035236898733762401e-02
-2.056585069573720753e-02
2.175737298977429429e-02
-3.649747152953745216e-02
1.814069360492028340e-02
2.733390365852061618e-02
1.950541153264460925e-02
-3.500563454439351019e-02
-8.330818091062916139e-03
-1.862402113314193253e-02
-1.715514697551594192e-03
-1.353745657311990550e-02
-6.278218731688294495e-03
-3.372144468642785265e-03
1.007477255114537854e-02
-5.008106338587498332e-03
-5.942932187131572987e-03
6.111461656709441491e-03
-1.826164209874524963e-02
-1.886560947059262236e-02
3.027384201770702554e-02
5.558369638506525934e-03
-1.142251481064543439e-02
-3.513066655851725811e-03
3.864454541860073283e-02
-1.277516713370859675e-02
-1.573936834182687247e-02
7.799780064436046857e-03
3.374141495231886088e-03
3.125674625133703644e-02
6.784568335285985109e-03
-4.166515256348258395e-02
7.735851485149992414e-03
1.900453810500245255e-02
3.153098839289125190e-03
6.121097925628419222e-03
-1.865916973142940291e-02
-2.997763704985941316e-02
4.120621443588816379e-03
2.739981747002944584e-02
5.003429510035815875e-03
-2.865470916103821791e-02
-2.506419985609722664e-02
7.382945544770406002e-03
8.695148765909288882e-03
2.444214666658425447e-02
7.660806039386358797e-03
-6.200632212724477982e-03
1.365358986003055962e-02
-2.165531709711160727e-02
1.138118875850263959e-02
-2.202222238836640776e-03
1.793309300016149299e-02
1.050190627144285613e-02
-1.473450835779188325e-02
4.395561017308499685e-02
5.874921768706316445e-03
2.572708691004851542e-02
5.762517671440784035e-03
8.609285806704686933e-03
4.064847962650292024e-02
-4.197753031239533777e-02
1.937700846433094981e-02
1.258941194963313949e-02
-2.720317820965918731e-02
-2.596628846449816966e-02
-2.447907225830565220e-02
1.149543857313377847e-02
-8.385058868755437302e-04
8.420225319086475924e-03
-1.767621825494958623e-02
2.890192740484823913e-02
2.739086439662419964e-02
1.106468044548561402e-02
6.179892054131334855e-02
5.389197773019915177e-02
6.114653981207204131e-02
6.558879927853575320e-02
7.499455123947496027e-02
1.447785928886279327e-01
1.118828468074975352e-01
1.597221564709283559e-01
1.511484196450923745e-01
1.986272070582015825e-01
1.981055857114104035e-01
1.535626690247189619e-01
1.515333470353289747e-01
8.222467974482985942e-02
1.114379220434917189e-01
8.567570377407870974e-02
5.020290366285777572e-02
1.183675679834506056e-02
4.582257159642541544e-02
2.917342940949011615e-02
-3.021707669316097550e-03
1.162930169165648717e-02
-5.389172506112758707e-03
-7.522374704315502696e-03
2.590465227929581588e-02
1.027985755717424760e-02
8.203136331815142832e-03
1.811775883514796584e-02
8.691332540943449286e-03
2.203549678625263148e-03
-6.593465024198355735e-03
6.537805162895895389e-03
1.549409611038073467e-02
-2.559082975334410828e-02
-2.752943699774781927e-02
-2.658685275270457511e-03
1.161670309944281242e-02
-1.986277177439240219e-02
-2.880477565341691207e-02
2.365688844411133196e-02
-2.821346657784686018e-02
-1.872746875219624425e-03
1.343998453042878280e-02
-2.432504533592923582e-02
8.891427233819344453e-03
9.711624087020375579e-03
-1.539103563976063245e-02
-1.882535863817778182e-02
-1.881211539478569277e-03
9.111481225292535763e-03
9.485589002025014704e-03
1.043698448271331101e-03
9.143073743374309850e-03
2.743800787589177267e-02
-1.290081574337917023e-02
-3.005017523226639897e-02
1.564167322654746312e-02
-5.532916262983793992e-02
5.536009723940521834e-03
1.575335574677122832e-02
2.071056916984162586e-03
1.814690885789405073e-02
3.597465526388186202e-02
-1.027356918376313120e-02
7.603340457994459296e-04
1.696950641859424486e-02
8.381179699584569848e-03
-5.432075463566359008e-02
-7.070513733626110353e-02
-5.447839578851582099e-02
-1.181871174031386695e-01
-9.685585136757660085e-02
-8.094041930214188052e-02
-6.618223176786688922e-02
-9.591300651919862363e-04
1.082963668475412679e-02
3.399727012241131330e-02
9.081123594086419615e-02
1.759780884813788582e-01
2.565581560537547601e-01
3.205641692080569705e-01
4.456525580562550881e-01
5.994468283764978755e-01
7.483430380578115493e-01
8.690659987767013206e-01
9.347930545260639823e-01
1.000000000000000000e+00
9.706753351715279310e-01
9.155630730752296609e-01
7.808796476907604589e-01
6.260415248269447508e-01
4.768871647311826445e-01
3.791147923112483387e-01
2.783340255518632067e-01
1.139507732822420127e-01
1.002585435853035195e-01
1.048208430814941486e-02
-4.982718038732154853e-02
-7.026266524287065607e-02
-1.092293765270654360e-01
-1.927291854540606753e-01
-2.552603523427152132e-01
-2.378799354884261197e-01
-1.785540116214622552e-01
-9.653988823854617318e-02
-7.276166590795508926e-02
-5.143710000516030917e-02
-1.276862216646088531e-02
1.418861076601366303e-02
-2.061102792054424898e-02
3.740193707453079441e-02
-2.499665904965063263e-03
9.482784751632838613e-03
-2.166059557370228136e-02
2.371720170012264067e-02
3.108499517334003051e-02
4.657296800196225606e-02
-1.221688135562407074e-02
5.233402003313175968e-03
3.156939834951771190e-02
3.048081714967837072e-02
-7.300188425186176187e-03
1.542274691784690545e-02
-1.240798898438842841e-02
2.298263548461415909e-02
-8.466889427577270477e-03
1.224459134924115421e-02
-2.241897686244741662e-03
-5.915081189385945279e-03
6.866843167364224121e-03
1.278165032807842584e-02
-1.486840664576011967e-02
7.190810710583925638e-03
-6.508837247558918633e-03
1.991469413337676464e-02
-2.847505578914551454e-03
9.677428168014761897e-03
2.098949684059026738e-02
-5.400771380250290847e-03
4.105407426961524449e-03
-2.784704025155869400e-02
8.212736578046565469e-03
-1.026492467512240409e-02
-2.182880522436011356e-02
-4.621127393584321431e-03
3.030750362737710465e-02
-3.488173884839086691e-02
2.892149455997168953e-02
-2.494106037539218969e-03
-1.633605321231805518e-02
1.557522468418310810e-02
-4.399761271339271834e-02
-1.713578676367457504e-02
-5.366398058675304894e-02
-8.137857957794250238e-03
-4.896138148805472684e-03
3.544182543178993339e-02
-3.878124331150376372e-03
3.134341550019288658e-02
-1.623770204734465566e-02
1.693154917814519711e-02
1.338260567610612822e-02
2.239185292977708547e-02
-1.742309964380864967e-02
4.496097402048215841e-02
5.865371764648431852e-02
2.237435745138598164e-02
-1.068042915879225188e-02
5.008983826016141783e-02
7.173846884361892440e-02
5.640061422060731189e-02
5.382790523377453673e-02
4.501263624622995480e-02
9.244272614972912083e-02
1.132306689333418548e-01
1.566233650233437857e-01
1.193776799076219641e-01
1.525982901333009512e-01
1.494849691385082280e-01
1.791993274356922794e-01
2.097261805952454483e-01
2.313361976674215281e-01
2.331503074193945202e-01
2.582263242804924142e-01
2.618377808245824223e-01
3.025253308421304022e-01
2.640941516962500013e-01
2.674000487186115049e-01
2.708741095331404503e-01
3.212542698423886400e-01
2.401362588830467382e-01
2.732728422723517125e-01
2.781881656954812154e-01
2.206971065216533079e-01
2.744004676899183814e-01
2.294838797542700370e-01
2.057571625807968485e-01
1.910802959258235678e-01
1.796055030962131760e-01
2.040688038248373304e-01
1.477628614523344153e-01
9.665421531434165159e-02
8.263982846417931849e-02
1.067689861910122440e-01
8.513479673378655799e-02
9.485002601790074039e-02
7.593794069381022693e-02
5.437795851843597872e-03
2.586790665512901308e-02
-1.984904985560601021e-04
1.845567554240838681e-02
1.746367194992674843e-02
-5.107900007035752477e-03
3.067511019666326055e-02
-7.061661301783969669e-04
2.662205081259360478e-02
1.165933415596918932e-02
-4.383778535722389694e-03
2.788371734816316380e-02
1.155508566504107743e-02
2.944990504274727985e-02
-4.544130862715440450e-02
4.494298354613571883e-03
-1.230881169820388296e-03
-2.717042965779187247e-02
-4.546339375216887010e-03
1.489678116496335504e-02
-5.545988779545610531e-04
4.373270270627666045e-02
2.638446728137940414e-02
1.908061251742025274e-02
-2.311181709005671707e-03
2.483659588854153499e-02
-1.045279607651921662e-02
-5.091472472322504557e-04
1.876266044401019017e-02
3.027119381961870803e-02
1.560674328561942846e-02
2.865544128104615881e-02
9.900931778362436972e-03
-8.176792812365687307e-03
-3.466980735201437985e-02
-1.736643757869742871e-02
7.988269889561484469e-03
3.376031702664461509e-02
-3.499686355337286187e-03
1.729870693797279715e-02
-8.866856044390860128e-03
-2.860324624664365920e-02
-3.267444807723534749e-03
2.377267531327444464e-02
1.796874163465640023e-02
-6.547209502333727581e-03
-2.455533200879269143e-02
3.414757962393416557e-02
1.976144170421111068e-02
1.173749727042080679e-02
-1.514175924322444002e-02
-5.622496772835955219e-03
-8.283270457328227934e-03
2.773196114289235101e-03
-1.784106488070654958e-02
1.997406997521620348e-02
5.066912854148760640e-04
8.973521372154005240e-05
-2.652136890704278119e-02
1.397059207198324965e-02
-2.012290733508923651e-02
4.216993898968401933e-03
-9.133774901458890927e-04
3.024159379219024460e-02
3.016823468452293697e-02
-3.082628992089432932e-02
-2.726599113131890004e-02
-3.502861734234449798e-02
1.972067289114759828e-02
-1.614139068798269364e-02
2.047401819201214584e-02
2.421969663628828831e-02
1.263518053788873462e-02
2.404245311015725320e-02
2.800666144322474030e-02
2.219169924550878567e-03
-1.574638441879397388e-02
-1.034885534716059249e-02
-3.323578464379541714e-02
1.990233764438299399e-02
-1.130880842977614528e-02
-1.856753242904938053e-02
-1.634280258751918610e-02
-2.023366324224029969e-02
6.525689797448508585e-03
6.236575584817009334e-03
-2.802718915088549950e-02
-1.372727993436114943e-02
-1.406017614216738092e-02
-2.350577345570805873e-02
1.681248131071472543e-02
-1.191227966975505655e-02
-2.084594321163469113e-02
9.979446979885182867e-03
-1.857516105531359721e-02
-1.045705440846654219e-02
3.715124781675813257e-04
-1.131197864006989497e-02
-1.633449878541966965e-02
1.468122492531447575e-02
1.177937017751784672e-02
1.551179198380769550e-02
1.654816635696072097e-03
7.332224087909237215e-03
-1.248329878133749155e-02
-1.427189064177273627e-02
3.254581711185753484e-02
-1.022680338834604588e-02
1.617741850650701238e-02
1.697674857895346487e-02
-1.304982446214362178e-02
-1.696795685664634692e-02
2.875080612509319303e-02
1.748447534190470179e-02
7.086470210976256526e-03
6.763154513936178724e-03
1.282546308553646555e-02
1.546723280555180498e-02
-9.538915027751466297e-03
-9.572980443570702769e-03
2.090059188142243118e-02
1.495128862664785695e-02
1.588898600595258295e-02
-1.264652834810948284e-02
-1.407530772635689868e-02
1.169259516202272170e-02
-2.978932616780284939e-03
-3.244391200184122692e-02
-7.692437531488504135e-03
-2.781292000648064033e-02
1.126773135634123561e-02
-3.116290914830175535e-02
1.333201309323469100e-02
-3.529514305979519913e-04
-1.803344535764286188e-02
-1.911414914438777646e-02
